Time,x[*],x_dot[*],theta[*],theta_dot[*],F[*],dx[*],dx_dot[*],dtheta[*],dtheta_dot[*]
0,0,0,0.17453292519943295,0,,,,,
0.011421,0.00014276641710954827,0.024990628128909738,0.17435844016632362,-0.030537721537552073,1.4659335064279022,0.024990628128909738,2.1862390357811434,-0.030537721537552073,-2.676589106265138
0.055369,0.003349078022213336,0.12087967325591203,0.1704120249073539,-0.14974848194743182,1.4659335064279022,0.12087967325591203,2.1799732759692194,-0.14974848194743182,-2.7689224832226653
0.116718,0.014873087181011456,0.25497227406469114,0.1558401981665013,-0.3287640487054518,1.4659335064279022,0.25497227406469114,2.1965663327955447,-0.3287640487054518,-3.1097193380851085
0.172048,0.03236123818526036,0.3775639746368174,0.1326438053343258,-0.5147064241286571,1.4659335064279022,0.3775639746368174,2.2394479292651734,-0.5147064241286571,-3.651171975800058
0.2,0.04379378947719656,0.44060296811036403,0.116784506706297,-0.621760257162773,1.4659335064279022,0.44060296811036403,2.272420964654201,-0.621760257162773,-4.020061462169162
0.21142100000000003,0.04881366241945722,0.43850309486697503,0.10981719662155588,-0.5986363898745283,0.10505163412244635,0.43850309486697503,-0.17502420300624214,-0.5986363898745283,1.9493514194168673
0.255369,0.06793691476616545,0.4322344025248992,0.08521215709472368,-0.5250451681434419,0.10505163412244635,0.4322344025248992,-0.11145339264384733,-0.5250451681434419,1.4106739137561541
0.316718,0.09429542324273923,0.42785915802566415,0.055227035884988986,-0.4592328564300905,0.10505163412244635,0.42785915802566415,-0.03279925805981199,-0.4592328564300905,0.7488598075025252
0.37204800000000005,0.11795214883813093,0.4278515551800274,0.030682113236456938,-0.43300217265530455,0.10505163412244635,0.4278515551800274,0.03187758739315534,-0.43300217265530455,0.20436408196362288
0.4,0.12992803369891734,0.4291861551647621,0.018623760574291756,-0.4310372103939761,0.10505163412244635,0.4291861551647621,0.06357584080764665,-0.4310372103939761,-0.06358412052147316
0.4114210000000001,0.13478195663178977,0.42085331469377035,0.01382498223948354,-0.40952863519848914,-0.33517392345675384,0.42085331469377035,-0.7225810195567525,-0.40952863519848914,1.8305548017303075
0.4553690000000001,0.15259617646583434,0.3902042720162501,-0.002527760914002503,-0.3373154357870453,-0.33517392345675384,0.3902042720162501,-0.6736275801329277,-0.3373154357870453,1.4672887797369827
0.5167180000000001,0.17530435721867282,0.3506549694439238,-0.020731443756688103,-0.2602713264670552,-0.33517392345675384,0.3506549694439238,-0.6178497439567064,-0.2602713264670552,1.0617361951218889
0.5720480000000001,0.19378207050176466,0.3176290180850274,-0.03366231111481968,-0.20979325069606505,-0.33517392345675384,0.3176290180850274,-0.5772389108911932,-0.20979325069606505,0.7732097382397902
0.6000000000000001,0.2024372962514353,0.30174680876039744,-0.03924098629270381,-0.18994984123470743,-0.33517392345675384,0.30174680876039744,-0.5594169710906418,-0.18994984123470743,0.6486789469103559
0.6114210000000001,0.2058367050230071,0.2935668464006499,-0.04134293526593353,-0.17823615867264328,-0.4234366788428697,0.2935668464006499,-0.7126993373613156,-0.17823615867264328,1.0024006672850154
0.6553690000000001,0.21805824418424472,0.2627943628440539,-0.04826108738073217,-0.1377277463090782,-0.4234366788428697,0.2627943628440539,-0.6885399302922516,-0.1377277463090782,0.8476935689189652
0.7167180000000001,0.23290248391018806,0.22139741328088824,-0.055223104573999864,-0.09082729213165794,-0.4234366788428697,0.22139741328088824,-0.6623418960362387,-0.09082729213165794,0.6919830887539237
0.7720480000000001,0.24414809284887437,0.18525481190615203,-0.05924089084008659,-0.05522860366302537,-0.4234366788428697,0.18525481190615203,-0.645006074777194,-0.05522860366302537,0.6021247462260819
0.8,0.24907527586575112,0.1673232425402057,-0.06055355583836117,-0.03883223003311359,-0.4234366788428697,0.1673232425402057,-0.6382319632336282,-0.03883223003311359,0.572768545198104
0.8114210000000001,0.25094921148968036,0.1608422802663911,-0.060971215917344466,-0.034328831213771366,-0.38511573140287864,0.1608422802663911,-0.5663329685439191,-0.034328831213771366,0.389744138467891
0.855369,0.2574735546943091,0.13612626376528839,-0.062113073957257535,-0.01782031769203007,-0.38511573140287864,0.13612626376528839,-0.5587909505392245,-0.01782031769203007,0.3642347804111486
0.916718,0.2647784041034511,0.1020874247369785,-0.06253142234602302,0.004085360738836964,-0.38511573140287864,0.1020874247369785,-0.5514904265493655,0.004085360738836964,0.35488920450938455
0.972048,0.2695848731337603,0.07168274925521242,-0.06175648912248442,0.024086417333306156,-0.38511573140287864,0.07168274925521242,-0.5480393384322733,0.024086417333306156,0.3722007871096699
1.0,0.27137455357341106,0.05637402226925169,-0.06093564295333888,0.03473097666704766,-0.38511573140287864,0.05637402226925169,-0.5474530547439044,0.03473097666704766,0.39053887236071916
1.0114210000000001,0.2719916530401913,0.05169124430340293,-0.06053569823174823,0.03532234905902913,-0.30939266343798216,0.05169124430340293,-0.41012893636925446,0.03532234905902913,0.056246918270057185
1.0553690000000002,0.27386700377744877,0.033645646889861554,-0.05891770005699079,0.03857530918609001,-0.30939266343798216,0.033645646889861554,-0.4111634812927274,0.03857530918609001,0.09232785775764954
1.1167180000000003,0.2751561413435061,0.008357299676561238,-0.05634288746402902,0.0459496972403912,-0.30939266343798216,0.008357299676561238,-0.41343635414696184,0.0459496972403912,0.1497556081563686
1.1720480000000002,0.2749841987885885,-0.014602931050494858,-0.05354093199677994,0.05590815941616305,-0.30939266343798216,-0.014602931050494858,-0.4167427945031948,0.05590815941616305,0.21226190600714118
1.2000000000000002,0.2744129321062042,-0.026282551690445768,-0.051890598629389335,0.0623465748698328,-0.30939266343798216,-0.026282551690445768,-0.41902743275742943,0.0623465748698328,0.24908295226711508
1.211421,0.27409480774239925,-0.02942935509611634,-0.051185429895964585,0.0611710378214481,-0.23005057362685039,-0.02942935509611634,-0.27618082379535414,0.0611710378214481,-0.09510643166640755
1.2553690000000002,0.27253318806164617,-0.04167245390795995,-0.04856996303912242,0.05828180595008188,-0.23005057362685039,-0.04167245390795995,-0.2809241507959827,0.05828180595008188,-0.03684039184555389
1.3167180000000003,0.2694439676841596,-0.059100890241017015,-0.04501402449138091,0.05845111327243008,-0.23005057362685039,-0.059100890241017015,-0.2872385430052459,0.05845111327243008,0.04239712015713902
1.3720480000000002,0.2657312622438107,-0.07515662039561279,-0.04167776322429815,0.06282907941711771,-0.23005057362685039,-0.07515662039561279,-0.293223699228904,0.06282907941711771,0.11675716393008473
1.4000000000000001,0.2635155120880232,-0.08339866985078016,-0.0398707848394225,0.06665011185333138,-0.23005057362685039,-0.08339866985078016,-0.29655035616310715,0.06665011185333138,0.15703773493986284
1.411421,0.26255205913332447,-0.08532291211005368,-0.03911997643264863,0.06486224479414572,-0.1591269114074286,-0.08532291211005368,-0.1693053360962332,0.06486224479414572,-0.1482289186498041
1.4553690000000001,0.25863685875596654,-0.09289540065778228,-0.03639260919367956,0.05970084499889291,-0.1591269114074286,-0.09289540065778228,-0.17520081598369597,0.05970084499889291,-0.08749160150296044
1.5167180000000002,0.25260328917860564,-0.10387590477223585,-0.032844404125043934,0.056778074286785385,-0.1591269114074286,-0.10387590477223585,-0.18267193725950817,0.056778074286785385,-0.00845755076793198
1.5720480000000001,0.24657288664004828,-0.1141643811131098,-0.029680066776047554,0.05825189725510173,-0.1591269114074286,-0.1141643811131098,-0.18924988288699832,0.05825189725510173,0.06203915293194116
1.6,0.24330739011659602,-0.11950223971739228,-0.028022811882855686,0.06049884408420685,-0.1591269114074286,-0.11950223971739228,-0.19270577482622528,0.06049884408420685,0.09896417083789605
1.611421,0.24193696072864784,-0.12048842961375567,-0.027342547766607793,0.058657108809001615,-0.10016577499552193,-0.12048842961375567,-0.08716234257396775,0.058657108809001615,-0.15373145477527583
1.655369,0.23655566329987524,-0.12444924366141413,-0.02489517201178975,0.05311819646774538,-0.10016577499552193,-0.12444924366141413,-0.09297388934978441,0.05311819646774538,-0.09923228998089834
1.7167180000000002,0.22874114085340636,-0.1303790161357506,-0.021778732158526225,0.04918691931404552,-0.10016577499552193,-0.1303790161357506,-0.10021689393505698,0.04918691931404552,-0.0298241892969443
1.772048,0.2213707074492292,-0.1360955220846699,-0.01907209938270954,0.0492044087541254,-0.10016577499552193,-0.1360955220846699,-0.10640727290833076,0.0492044087541254,0.030463825639420884
1.8,0.21752459048374229,-0.1391139114415397,-0.01768082851100939,0.05048723068337636,-0.10016577499552193,-0.1391139114415397,-0.1095755428357829,0.05048723068337636,0.06145510893390544
1.811421,0.21593416054630457,-0.1394025954535539,-0.01711380126950831,0.048834115222845316,-0.05339280657001715,-0.1394025954535539,-0.02600297721550738,0.048834115222845316,-0.1384713560828036
1.855369,0.20978089545686718,-0.14066164560052447,-0.015086433653783,0.043758734233998675,-0.05339280657001715,-0.14066164560052447,-0.031189127264589868,0.043758734233998675,-0.09332407861585254
1.9167180000000001,0.20108854237500393,-0.14277554957512884,-0.012541053564306225,0.03979990243147629,-0.05339280657001715,-0.14277554957512884,-0.037604250090504,0.03979990243147629,-0.03663698520687945
1.972048,0.19312844488485326,-0.14500612618789271,-0.010370215424328786,0.03911418626756011,-0.05339280657001715,-0.14500612618789271,-0.042998458897684735,0.03911418626756011,0.011712919710157307
2.0,0.18905808744184213,-0.14624590298201215,-0.0092691412492793,0.039783397395995256,-0.05339280657001715,-0.14624590298201215,-0.04571505542310589,0.039783397395995256,0.036238042978985946
2.011421,0.18738905318673132,-0.14603523036952426,-0.008822763550723188,0.03840486619468759,-0.017762061609928863,-0.14603523036952426,0.01783494039677675,0.03840486619468759,-0.11576503686757436
2.055369,0.18098690463449454,-0.14534935043375818,-0.007235022979576025,0.034109549839885074,-0.017762061609928863,-0.14534935043375818,0.013467826577147644,0.034109549839885074,-0.08040508000598673
2.116718,0.17209166258887065,-0.14469151057259144,-0.005265436929703028,0.030547214509825574,-0.017762061609928863,-0.14469151057259144,0.008085269883796618,0.030547214509825574,-0.03653981382329925
2.172048,0.1640959559655086,-0.14436887327173992,-0.003612237258536991,0.02954970361654683,-0.017762061609928863,-0.14436887327173992,0.0036088179537920873,0.02954970361654683,0.0002804066748136932
2.2,0.160061681331632,-0.1442991020782752,-0.002783758152523883,0.029815063745689756,-0.017762061609928863,-0.1442991020782752,0.0013821187575118465,0.029815063745689756,0.018732839793991894
2.211421,0.15841681406861796,-0.14374948567345744,-0.0024495641780872364,0.02872296762053673,0.008221256710864287,-0.14374948567345744,0.047630692603015674,0.028722967620536728,-0.09192698233334284
2.255369,0.152144172173949,-0.14173527949068077,-0.00126727456420215,0.025273894317550553,0.008221256710864287,-0.14173527949068077,0.04410479109951905,0.025273894317550553,-0.06559501804865231
2.3167180000000003,0.14352897888929325,-0.13916528835115594,0.00018071061729557766,0.022260007090234842,0.008221256710864287,-0.13916528835115594,0.03976772002253418,0.02226000709023484,-0.033345249568855366
2.3720480000000004,0.1358879941730519,-0.13706472753753288,0.0013750691958169456,0.021157157892332856,0.008221256710864287,-0.13706472753753288,0.03619378434474201,0.021157157892332856,-0.006744083455671788
2.4000000000000004,0.13207067486255805,-0.13607762634205528,0.0019655310126470687,0.021152465153452343,0.008221256710864287,-0.13607762634205528,0.03443624069505882,0.021152465153452343,0.006406961339145643
2.411421,0.13052090825330656,-0.13531665043631202,0.0022023297515068162,0.020325686595476112,0.026141738566959102,-0.13531665043631202,0.06624727084415773,0.02032568659547611,-0.06977410115044791
2.455369,0.12463710920740455,-0.1324666991982267,0.0030343961410297677,0.01767595523792127,0.026141738566959102,-0.1324666991982267,0.06350520956021724,0.01767595523792127,-0.0512415639870616
2.516718,0.11662767217264154,-0.12867625937008406,0.004036913169374755,0.015234317098413101,0.026141738566959102,-0.12867625937008406,0.06013659734389247,0.015234317098413101,-0.028912676219890805
2.572048,0.10959864508330903,-0.1254258700118967,0.004844931784913822,0.014138654311750917,0.026141738566959102,-0.1254258700118967,0.05738602973795941,0.014138654311750917,-0.010915889955470739
2.6,0.10611498819565358,-0.12384053985491662,0.0052370110867497755,0.013955854522956985,0.026141738566959102,-0.12384053985491662,0.05604988478235977,0.013955854522956985,-0.0021832360818764725
2.611421,0.10470561803822352,-0.1229673443705809,0.005392957051233379,0.013360006936686007,0.03752468653855289,-0.1229673443705809,0.07617028300109498,0.013360006936686007,-0.050448852179016804
2.6553690000000003,0.09937435601584373,-0.11966577416824652,0.005935427106722158,0.01141533700518719,0.03752468653855289,-0.11966577416824652,0.07412010119320786,0.011415337005187192,-0.03836621621931649
2.716718,0.0921707754926921,-0.11519746717856776,0.006572869537237821,0.009510420367177475,0.03752468653855289,-0.11519746717856776,0.07160396463203048,0.009510420367177475,-0.024168316123440652
2.7720480000000003,0.08590545092141617,-0.11129265765359954,0.007067877385997775,0.00848401462838732,0.03752468653855289,-0.11129265765359954,0.06957098956572096,0.00848401462838732,-0.01314297141200443
2.8000000000000003,0.082821652405706,-0.10936167322639355,0.007300568349643561,0.008189508461440006,0.03752468653855289,-0.10936167322639355,0.06859799337505858,0.008189508461440006,-0.007960255861968125
2.8114209999999997,0.08157785493439353,-0.10845105115163534,0.0073917748940205644,0.007786493991268658,0.04376246006957895,-0.10845105115163534,0.07952986824065292,0.007786493991268657,-0.034280957270177145
2.8553689999999996,0.07688799138437902,-0.10498863632427607,0.00770321067164411,0.0064371711502683475,0.04376246006957895,-0.10498863632427607,0.07806795885593161,0.006437171150268348,-0.027344185044425276
2.916718,0.07059274288000207,-0.10025548819779032,0.008051847867543304,0.0050078040486861005,0.04376246006957895,-0.10025548819779032,0.07627558824093307,0.0050078040486861005,-0.01957884634792534
2.972048,0.06516161934965783,-0.09607537712539646,0.008301950287704167,0.004083853992514229,0.04376246006957895,-0.09607537712539646,0.07484713107704496,0.004083853992514229,-0.01400824390771115
3.0,0.06250527435203522,-0.09399268637287597,0.008410952628473797,0.0037267477870415186,0.04376246006957895,-0.09399268637287597,0.0741771375399041,0.0037267477870415186,-0.011580413751590645
3.011421,0.06143690581094829,-0.09309892427957464,0.00845209190510543,0.0034793870211327765,0.046081803012576326,-0.09309892427957464,0.07812160162434965,0.0034793870211327765,-0.021205974905650793
3.055369,0.057420535051010094,-0.08968752101078614,0.008585551424755835,0.002615840933946849,0.046081803012576326,-0.08968752101078614,0.0771446616776976,0.0026158409339468495,-0.018233365102837087
3.116718,0.05206265017320471,-0.08499235565398802,0.00871372851978256,0.0015919552405917097,0.046081803012576326,-0.08499235565398802,0.07594843415694116,0.0015919552405917097,-0.015378419555883253
3.172048,0.04747578937623376,-0.08081656574187003,0.008779143028684594,0.0007859481990327125,0.046081803012576326,-0.08081656574187003,0.07501438135291336,0.0007859481990327125,-0.013921414442141879
3.2,0.04524605553892912,-0.07872576997393045,0.008795728856101165,0.00040253704648699927,0.046081803012576326,-0.07872576997393045,0.07458991462654752,0.00040253704648699927,-0.013551990532908493
3.211421,0.04435173716694272,-0.07788622655339175,0.008799606530107222,0.0002767869041995828,0.04553272506992439,-0.07788622655339175,0.0734286200072101,0.0002767869041995826,-0.010969980446328107
3.255369,0.04099952737182912,-0.07467236168730161,0.008801227732356946,-0.00020280544595374997,0.04553272506992439,-0.07467236168730161,0.07283996004744905,-0.00020280544595374997,-0.01093387004557663
3.3167180000000003,0.03655502263726565,-0.07022634786100654,0.008767889376022733,-0.0008915675642675697,0.04553272506992439,-0.07022634786100654,0.07212071126604994,-0.00089156756426757,-0.011676423666447071
3.3720480000000004,0.03277950839147376,-0.06625138001217595,0.008700022469315422,-0.0015755586428386416,0.04553272506992439,-0.06625138001217595,0.07157938669652131,-0.0015755586428386416,-0.013188040964754929
3.4000000000000004,0.030955583501202803,-0.06425389750599736,0.008650694895945478,-0.0019589901767339607,0.04553272506992439,-0.06425389750599736,0.07134804885114879,-0.0019589901767339607,-0.014286726964523062
3.411421,0.030226100124981156,-0.06349227970840296,0.008628132100470289,-0.0019930520564907924,0.042990450962262616,-0.06349227970840296,0.06664765897688318,-0.0019930520564907924,-0.003234162840092523
3.455369,0.027500023773855648,-0.060569664749091555,0.008536779235492035,-0.0021792234015731446,0.042990450962262616,-0.06056966474909155,0.06636043703573727,-0.0021792234015731446,-0.005268883388362098
3.516718,0.023908758336882305,-0.056509567407853234,0.008391223184531425,-0.0025989923288148105,0.042990450962262616,-0.056509567407853234,0.06601126868351578,-0.00259899232881481,-0.008510884342160742
3.572048,0.020882997951199,-0.05286417806943798,0.008232680187748139,-0.003164378107781282,0.042990450962262616,-0.05286417806943798,0.06577220917967522,-0.003164378107781282,-0.012042149855307577
3.6,0.019431022356269024,-0.05102695844384473,0.008139261424953437,-0.003529532330178599,0.042990450962262616,-0.05102695844384473,0.06568784877923348,-0.003529532330178599,-0.014122889821041824
3.611421,0.018852081859206674,-0.050356254667774526,0.008099144172051735,-0.0034973890796831464,0.039165521127695994,-0.05035625466777452,0.05871882591003158,-0.0034973890796831464,0.0023687295753138512
3.6553690000000003,0.01669572247752455,-0.047777031774889726,0.007946633935943064,-0.0034680267967730784,0.039165521127695994,-0.04777703177488972,0.058657486149701565,-0.0034680267967730784,-0.0010281393686224407
3.716718,0.013874962210378587,-0.04418081382629353,0.007728937830454722,-0.003678379057026493,0.039165521127695994,-0.04418081382629353,0.05858545939086971,-0.003678379057026493,-0.005876906136025761
3.7720480000000003,0.011520101138916442,-0.040940007404358644,0.007514046040564612,-0.004133372660365176,0.039165521127695994,-0.040940007404358644,0.058570558050224916,-0.004133372660365176,-0.010663223046491376
3.8000000000000003,0.010398630348935962,-0.039302579360041806,0.0073940028710647665,-0.004468315366454704,0.039165521127695994,-0.039302579360041806,0.05859368029489344,-0.004468315366454704,-0.01333696703446802
3.8114209999999997,0.00995304483131197,-0.03872762362007609,0.007343424126286177,-0.00439107020185433,0.03461884592338684,-0.03872762362007609,0.050357754469366564,-0.00439107020185433,0.006202334500849345
3.8553689999999996,0.008299717158138884,-0.036512223452244065,0.007155071605490011,-0.004211308410386928,0.03461884592338684,-0.03651222345224406,0.05045835565301793,-0.004211308410386928,0.002007171043391259
3.916718,0.006154746239375878,-0.03341278477512724,0.006896888098700074,-0.0042642068542356045,0.03461884592338684,-0.03341278477512724,0.05058485886207593,-0.0042642068542356045,-0.003743347592454238
3.972048,0.004383516042805231,-0.03061019092979137,0.006652497179573402,-0.0046198897516021385,0.03461884592338684,-0.03061019092979137,0.050728472787779845,-0.0046198897516021385,-0.009186679460362113
4.0,0.0035477302495922408,-0.02919091504525812,0.006519393129911274,-0.004917679892449636,0.03461884592338684,-0.02919091504525812,0.05082616647497733,-0.004917679892449636,-0.012151319078667623
